Oct. 20, 2025   15:41:27
Cyclic Voltammetry
File: d1cv.bin
Data Source:  Experiment
Instrument Model:  CHI760E
Header: 
Note: 

Init E (V) = 0.6
High E (V) = 0.9
Low E (V) = -0.5
Init P/N = N
Scan Rate (V/s) = 0.2
Segment = 2
Sample Interval (V) = 0.01
Quiet Time (sec) = 2
Sensitivity (A/V) = 1e-8

Results:

Channel 1:
Segment 1:
Ep = 0.405V
ip = -7.973e-12A
Ah = -3.728e-12C

Segment 2:
Ep = 0.105V
ip = 2.531e-12A
Ah = 4.891e-13C

Ep = 0.645V
ip = 6.961e-11A
Ah = 3.771e-11C

Potential/V, Current/A

0.595, -2.843e-11
0.585, -3.983e-11
0.575, -3.909e-11
0.565, -4.497e-11
0.555, -4.330e-11
0.545, -4.914e-11
0.535, -4.665e-11
0.525, -5.285e-11
0.515, -5.008e-11
0.505, -5.675e-11
0.495, -5.439e-11
0.485, -6.207e-11
0.475, -5.999e-11
0.465, -6.807e-11
0.455, -6.548e-11
0.445, -7.380e-11
0.435, -6.934e-11
0.425, -7.705e-11
0.415, -7.129e-11
0.405, -7.708e-11
0.395, -6.953e-11
0.385, -7.392e-11
0.375, -6.021e-11
0.365, -6.001e-11
0.355, -4.404e-11
0.345, -4.184e-11
0.335, -2.702e-11
0.325, -2.894e-11
0.315, -1.785e-11
0.305, -2.377e-11
0.295, -1.469e-11
0.285, -2.231e-11
0.275, -1.337e-11
0.265, -2.171e-11
0.255, -1.239e-11
0.245, -2.147e-11
0.235, -1.198e-11
0.225, -2.123e-11
0.215, -1.176e-11
0.205, -2.138e-11
0.195, -1.127e-11
0.185, -2.145e-11
0.175, -1.104e-11
0.165, -2.143e-11
0.155, -1.082e-11
0.145, -2.184e-11
0.135, -1.076e-11
0.125, -2.205e-11
0.115, -1.101e-11
0.105, -2.250e-11
0.095, -1.078e-11
0.085, -2.250e-11
0.075, -1.088e-11
0.065, -2.309e-11
0.055, -1.113e-11
0.045, -2.350e-11
0.035, -1.140e-11
0.025, -2.344e-11
0.015, -1.114e-11
0.005, -2.395e-11
-0.005, -1.115e-11
-0.015, -2.381e-11
-0.025, -1.149e-11
-0.035, -2.449e-11
-0.045, -1.133e-11
-0.055, -2.466e-11
-0.065, -1.128e-11
-0.075, -2.472e-11
-0.085, -1.110e-11
-0.095, -2.489e-11
-0.105, -1.107e-11
-0.115, -2.533e-11
-0.125, -1.128e-11
-0.135, -2.595e-11
-0.145, -1.127e-11
-0.155, -2.639e-11
-0.165, -1.152e-11
-0.175, -2.694e-11
-0.185, -1.205e-11
-0.195, -2.809e-11
-0.205, -1.312e-11
-0.215, -2.898e-11
-0.225, -1.419e-11
-0.235, -3.013e-11
-0.245, -1.497e-11
-0.255, -3.161e-11
-0.265, -1.636e-11
-0.275, -3.294e-11
-0.285, -1.752e-11
-0.295, -3.515e-11
-0.305, -2.017e-11
-0.315, -3.713e-11
-0.325, -2.243e-11
-0.335, -4.039e-11
-0.345, -2.468e-11
-0.355, -4.246e-11
-0.365, -2.831e-11
-0.375, -4.562e-11
-0.385, -3.077e-11
-0.395, -4.953e-11
-0.405, -3.431e-11
-0.415, -5.297e-11
-0.425, -3.837e-11
-0.435, -5.695e-11
-0.445, -4.247e-11
-0.455, -6.139e-11
-0.465, -4.751e-11
-0.475, -6.749e-11
-0.485, -5.235e-11
-0.495, -7.253e-11
-0.495, -1.416e-11
-0.485, -1.969e-11
-0.475, 4.665e-12
-0.465, -8.423e-12
-0.455, 1.287e-11
-0.445, -2.169e-12
-0.435, 1.825e-11
-0.425, 2.501e-12
-0.415, 2.232e-11
-0.405, 5.609e-12
-0.395, 2.532e-11
-0.385, 8.106e-12
-0.375, 2.708e-11
-0.365, 9.728e-12
-0.355, 2.872e-11
-0.345, 1.145e-11
-0.335, 3.015e-11
-0.325, 1.266e-11
-0.315, 3.145e-11
-0.305, 1.432e-11
-0.295, 3.264e-11
-0.285, 1.523e-11
-0.275, 3.374e-11
-0.265, 1.629e-11
-0.255, 3.505e-11
-0.245, 1.766e-11
-0.235, 3.583e-11
-0.225, 1.817e-11
-0.215, 3.624e-11
-0.205, 1.864e-11
-0.195, 3.674e-11
-0.185, 1.882e-11
-0.175, 3.731e-11
-0.165, 1.932e-11
-0.155, 3.741e-11
-0.145, 1.971e-11
-0.135, 3.805e-11
-0.125, 1.982e-11
-0.115, 3.800e-11
-0.105, 2.034e-11
-0.095, 3.856e-11
-0.085, 2.054e-11
-0.075, 3.905e-11
-0.065, 2.116e-11
-0.055, 3.891e-11
-0.045, 2.116e-11
-0.035, 3.923e-11
-0.025, 2.155e-11
-0.015, 3.977e-11
-0.005, 2.179e-11
0.005, 4.016e-11
0.015, 2.235e-11
0.025, 4.026e-11
0.035, 2.246e-11
0.045, 4.036e-11
0.055, 2.241e-11
0.065, 4.058e-11
0.075, 2.259e-11
0.085, 4.126e-11
0.095, 2.375e-11
0.105, 4.201e-11
0.115, 2.317e-11
0.125, 4.072e-11
0.135, 2.304e-11
0.145, 4.081e-11
0.155, 2.310e-11
0.165, 4.064e-11
0.175, 2.311e-11
0.185, 4.056e-11
0.195, 2.305e-11
0.205, 3.990e-11
0.215, 2.274e-11
0.225, 3.978e-11
0.235, 2.234e-11
0.245, 3.906e-11
0.255, 2.224e-11
0.265, 3.886e-11
0.275, 2.238e-11
0.285, 3.822e-11
0.295, 2.174e-11
0.305, 3.806e-11
0.315, 2.234e-11
0.325, 3.861e-11
0.335, 2.243e-11
0.345, 3.853e-11
0.355, 2.274e-11
0.365, 3.869e-11
0.375, 2.297e-11
0.385, 3.862e-11
0.395, 2.294e-11
0.405, 3.902e-11
0.415, 2.406e-11
0.425, 3.996e-11
0.435, 2.520e-11
0.445, 4.150e-11
0.455, 2.777e-11
0.465, 4.440e-11
0.475, 3.264e-11
0.485, 5.206e-11
0.495, 4.412e-11
0.505, 6.619e-11
0.515, 6.082e-11
0.525, 8.240e-11
0.535, 7.563e-11
0.545, 9.397e-11
0.555, 8.485e-11
0.565, 1.014e-10
0.575, 9.204e-11
0.585, 1.083e-10
0.595, 9.811e-11
0.605, 1.137e-10
0.615, 1.030e-10
0.625, 1.175e-10
0.635, 1.052e-10
0.645, 1.178e-10
0.655, 1.055e-10
0.665, 1.173e-10
0.675, 1.048e-10
0.685, 1.163e-10
0.695, 1.054e-10
0.705, 1.174e-10
0.715, 1.092e-10
0.725, 1.226e-10
0.735, 1.161e-10
0.745, 1.304e-10
0.755, 1.248e-10
0.765, 1.459e-10
0.775, 1.442e-10
0.785, 1.671e-10
0.795, 1.746e-10
0.805, 2.138e-10
0.815, 2.507e-10
0.825, 3.358e-10
0.835, 4.388e-10
0.845, 5.981e-10
0.855, 7.821e-10
0.865, 1.052e-9
0.875, 1.471e-9
0.885, 2.053e-9
0.895, 1.586e-9
